# Frequency (eV) 	 HHG Real 	 Imaginary
0	0
0.000367493	2.09201e-15
0.000734986	8.38614e-15
0.00110248	1.89364e-14
0.00146997	3.38319e-14
0.00183747	5.31953e-14
0.00220496	7.71808e-14
0.00257245	1.05972e-13
0.00293995	1.3978e-13
0.00330744	1.78839e-13
0.00367493	2.23406e-13
0.00404243	2.73758e-13
0.00440992	3.30189e-13
0.00477741	3.93009e-13
0.00514491	4.62544e-13
0.0055124	5.39137e-13
0.00587989	6.23146e-13
0.00624738	7.14944e-13
0.00661488	8.14928e-13
0.00698237	9.23513e-13
0.00734986	1.04114e-12
0.00771736	1.16828e-12
0.00808485	1.30543e-12
0.00845234	1.45312e-12
0.00881984	1.61192e-12
0.00918733	1.78243e-12
0.00955482	1.96531e-12
0.00992232	2.16123e-12
0.0102898	2.37093e-12
0.0106573	2.59516e-12
0.0110248	2.83471e-12
0.0113923	3.09044e-12
0.0117598	3.36319e-12
0.0121273	3.65385e-12
0.0124948	3.96334e-12
0.0128623	4.29259e-12
0.0132298	4.64256e-12
0.0135972	5.0142e-12
0.0139647	5.40849e-12
0.0143322	5.82643e-12
0.0146997	6.26903e-12
0.0150672	6.73729e-12
0.0154347	7.23227e-12
0.0158022	7.755e-12
0.0161697	8.30658e-12
0.0165372	8.88811e-12
0.0169047	9.50071e-12
0.0172722	1.01456e-11
0.0176397	1.08239e-11
0.0180072	1.15369e-11
0.0183747	1.22859e-11
0.0187422	1.30722e-11
0.0191096	1.38972e-11
0.0194771	1.47623e-11
0.0198446	1.5669e-11
0.0202121	1.66186e-11
0.0205796	1.76128e-11
0.0209471	1.8653e-11
0.0213146	1.97408e-11
0.0216821	2.08779e-11
0.0220496	2.20657e-11
0.0224171	2.3306e-11
0.0227846	2.46003e-11
0.0231521	2.59503e-11
0.0235196	2.73578e-11
0.0238871	2.88242e-11
0.0242546	3.03514e-11
0.024622	3.19411e-11
0.0249895	3.3595e-11
0.025357	3.5315e-11
0.0257245	3.71027e-11
0.026092	3.89601e-11
0.0264595	4.08891e-11
0.026827	4.28915e-11
0.0271945	4.49693e-11
0.027562	4.71246e-11
0.0279295	4.93593e-11
0.028297	5.16755e-11
0.0286645	5.40754e-11
0.029032	5.65612e-11
0.0293995	5.91348e-11
0.029767	6.17987e-11
0.0301344	6.45551e-11
0.0305019	6.74061e-11
0.0308694	7.03541e-11
0.0312369	7.34014e-11
0.0316044	7.65504e-11
0.0319719	7.98032e-11
0.0323394	8.31624e-11
0.0327069	8.66303e-11
0.0330744	9.02092e-11
0.0334419	9.39017e-11
0.0338094	9.77101e-11
0.0341769	1.01637e-10
0.0345444	1.05685e-10
0.0349119	1.09856e-10
0.0352793	1.14153e-10
0.0356468	1.18579e-10
0.0360143	1.23137e-10
0.0363818	1.27828e-10
0.0367493	1.32656e-10
0.0371168	1.37624e-10
0.0374843	1.42735e-10
0.0378518	1.4799e-10
0.0382193	1.53394e-10
0.0385868	1.58949e-10
0.0389543	1.64658e-10
0.0393218	1.70524e-10
0.0396893	1.76551e-10
0.0400568	1.8274e-10
0.0404243	1.89097e-10
0.0407917	1.95622e-10
0.0411592	2.0232e-10
0.0415267	2.09193e-10
0.0418942	2.16246e-10
0.0422617	2.2348e-10
0.0426292	2.30899e-10
0.0429967	2.38506e-10
0.0433642	2.46305e-10
0.0437317	2.54298e-10
0.0440992	2.62489e-10
0.0444667	2.70882e-10
0.0448342	2.7948e-10
0.0452017	2.88286e-10
0.0455692	2.97304e-10
0.0459367	3.06537e-10
0.0463041	3.15989e-10
0.0466716	3.25665e-10
0.0470391	3.35567e-10
0.0474066	3.45699e-10
0.0477741	3.56066e-10
0.0481416	3.66671e-10
0.0485091	3.77517e-10
0.0488766	3.8861e-10
0.0492441	3.99952e-10
0.0496116	4.11547e-10
0.0499791	4.23399e-10
0.0503466	4.35513e-10
0.0507141	4.47891e-10
0.0510816	4.60538e-10
0.0514491	4.73458e-10
0.0518165	4.86654e-10
0.052184	5.00131e-10
0.0525515	5.13893e-10
0.052919	5.27944e-10
0.0532865	5.42289e-10
0.053654	5.56931e-10
0.0540215	5.71875e-10
0.054389	5.87126e-10
0.0547565	6.02688e-10
0.055124	6.18566e-10
0.0554915	6.34764e-10
0.055859	6.51288e-10
0.0562265	6.68142e-10
0.056594	6.8533e-10
0.0569614	7.02858e-10
0.0573289	7.20729e-10
0.0576964	7.38949e-10
0.0580639	7.57522e-10
0.0584314	7.76452e-10
0.0587989	7.95744e-10
0.0591664	8.15404e-10
0.0595339	8.35434e-10
0.0599014	8.55841e-10
0.0602689	8.7663e-10
0.0606364	8.97804e-10
0.0610039	9.1937e-10
0.0613714	9.41333e-10
0.0617389	9.63697e-10
0.0621064	9.86469e-10
0.0624738	1.00965e-09
0.0628413	1.03326e-09
0.0632088	1.05729e-09
0.0635763	1.08174e-09
0.0639438	1.10664e-09
0.0643113	1.13197e-09
0.0646788	1.15776e-09
0.0650463	1.18399e-09
0.0654138	1.21068e-09
0.0657813	1.23784e-09
0.0661488	1.26546e-09
0.0665163	1.29356e-09
0.0668838	1.32213e-09
0.0672513	1.35119e-09
0.0676188	1.38075e-09
0.0679862	1.41079e-09
0.0683537	1.44134e-09
0.0687212	1.4724e-09
0.0690887	1.50398e-09
0.0694562	1.53608e-09
0.0698237	1.5687e-09
0.0701912	1.60186e-09
0.0705587	1.63556e-09
0.0709262	1.66982e-09
0.0712937	1.70463e-09
0.0716612	1.74e-09
0.0720287	1.77594e-09
0.0723962	1.81246e-09
0.0727637	1.84956e-09
0.0731312	1.88724e-09
0.0734986	1.92553e-09
0.0738661	1.96441e-09
0.0742336	2.0039e-09
0.0746011	2.04401e-09
0.0749686	2.08474e-09
0.0753361	2.12609e-09
0.0757036	2.16808e-09
0.0760711	2.21072e-09
0.0764386	2.254e-09
0.0768061	2.29795e-09
0.0771736	2.34256e-09
0.0775411	2.38785e-09
0.0779086	2.43383e-09
0.0782761	2.4805e-09
0.0786435	2.52788e-09
0.079011	2.57597e-09
0.0793785	2.62479e-09
0.079746	2.67433e-09
0.0801135	2.72461e-09
0.080481	2.77563e-09
0.0808485	2.8274e-09
0.081216	2.87994e-09
0.0815835	2.93323e-09
0.081951	2.9873e-09
0.0823185	3.04215e-09
0.082686	3.0978e-09
0.0830535	3.15425e-09
0.083421	3.21151e-09
0.0837885	3.2696e-09
0.0841559	3.32854e-09
0.0845234	3.38835e-09
0.0848909	3.44903e-09
0.0852584	3.51061e-09
0.0856259	3.57311e-09
0.0859934	3.63654e-09
0.0863609	3.70091e-09
0.0867284	3.76625e-09
0.0870959	3.83256e-09
0.0874634	3.89984e-09
0.0878309	3.9681e-09
0.0881984	4.03734e-09
0.0885659	4.10755e-09
0.0889334	4.17873e-09
0.0893009	4.25086e-09
0.0896683	4.32393e-09
0.0900358	4.39794e-09
0.0904033	4.47286e-09
0.0907708	4.54869e-09
0.0911383	4.62544e-09
0.0915058	4.7031e-09
0.0918733	4.78167e-09
0.0922408	4.86119e-09
0.0926083	4.94168e-09
0.0929758	5.02316e-09
0.0933433	5.1057e-09
0.0937108	5.18933e-09
0.0940783	5.27412e-09
0.0944458	5.36013e-09
0.0948133	5.44742e-09
0.0951807	5.53604e-09
0.0955482	5.62606e-09
0.0959157	5.71752e-09
0.0962832	5.81046e-09
0.0966507	5.9049e-09
0.0970182	6.00085e-09
0.0973857	6.09829e-09
0.0977532	6.19721e-09
0.0981207	6.29754e-09
0.0984882	6.39924e-09
0.0988557	6.50221e-09
0.0992232	6.60637e-09
0.0995907	6.71163e-09
0.0999582	6.81786e-09
0.100326	6.92498e-09
0.100693	7.03286e-09
0.101061	7.14141e-09
0.101428	7.25055e-09
0.101796	7.3602e-09
0.102163	7.4703e-09
0.102531	7.5808e-09
0.102898	7.69169e-09
0.103266	7.80296e-09
0.103633	7.91461e-09
0.104001	8.02667e-09
0.104368	8.13917e-09
0.104736	8.25215e-09
0.105103	8.36565e-09
0.105471	8.47972e-09
0.105838	8.5944e-09
0.106206	8.70972e-09
0.106573	8.82572e-09
0.106941	8.94241e-09
0.107308	9.0598e-09
0.107676	9.17791e-09
0.108043	9.29673e-09
0.108411	9.41627e-09
0.108778	9.53654e-09
0.109145	9.65754e-09
0.109513	9.7793e-09
0.10988	9.90187e-09
0.110248	1.00253e-08
0.110615	1.01497e-08
0.110983	1.02751e-08
0.11135	1.04018e-08
0.111718	1.05298e-08
0.112085	1.06593e-08
0.112453	1.07907e-08
0.11282	1.0924e-08
0.113188	1.10595e-08
0.113555	1.11974e-08
0.113923	1.1338e-08
0.11429	1.14814e-08
0.114658	1.16279e-08
0.115025	1.17776e-08
0.115393	1.19306e-08
0.11576	1.20869e-08
0.116128	1.22466e-08
0.116495	1.24096e-08
0.116863	1.25759e-08
0.11723	1.27454e-08
0.117598	1.29178e-08
0.117965	1.3093e-08
0.118333	1.32708e-08
0.1187	1.34509e-08
0.119068	1.36331e-08
0.119435	1.38171e-08
0.119803	1.40027e-08
0.12017	1.41897e-08
0.120538	1.43778e-08
0.120905	1.45671e-08
0.121273	1.47573e-08
0.12164	1.49485e-08
0.122008	1.51406e-08
0.122375	1.53337e-08
0.122743	1.5528e-08
0.12311	1.57236e-08
0.123478	1.59206e-08
0.123845	1.61195e-08
0.124213	1.63203e-08
0.12458	1.65234e-08
0.124948	1.67291e-08
0.125315	1.69376e-08
0.125683	1.71493e-08
0.12605	1.73642e-08
0.126418	1.75825e-08
0.126785	1.78045e-08
0.127153	1.80301e-08
0.12752	1.82593e-08
0.127888	1.8492e-08
0.128255	1.8728e-08
0.128623	1.89672e-08
0.12899	1.92092e-08
0.129358	1.94537e-08
0.129725	1.97003e-08
0.130093	1.99485e-08
0.13046	2.0198e-08
0.130828	2.04483e-08
0.131195	2.06991e-08
0.131563	2.09501e-08
0.13193	2.12011e-08
0.132298	2.14519e-08
0.132665	2.17027e-08
0.133033	2.19536e-08
0.1334	2.2205e-08
0.133768	2.24573e-08
0.134135	2.27113e-08
0.134503	2.29677e-08
0.13487	2.32276e-08
0.135238	2.34919e-08
0.135605	2.37619e-08
0.135972	2.40385e-08
0.13634	2.43231e-08
0.136707	2.46165e-08
0.137075	2.49198e-08
0.137442	2.52336e-08
0.13781	2.55583e-08
0.138177	2.58941e-08
0.138545	2.62409e-08
0.138912	2.6598e-08
0.13928	2.69645e-08
0.139647	2.73391e-08
0.140015	2.77201e-08
0.140382	2.81053e-08
0.14075	2.84924e-08
0.141117	2.88788e-08
0.141485	2.92617e-08
0.141852	2.96383e-08
0.14222	3.00058e-08
0.142587	3.03616e-08
0.142955	3.07031e-08
0.143322	3.10284e-08
0.14369	3.13357e-08
0.144057	3.16239e-08
0.144425	3.18926e-08
0.144792	3.21416e-08
0.14516	3.23719e-08
0.145527	3.25848e-08
0.145895	3.27823e-08
0.146262	3.29669e-08
0.14663	3.31418e-08
0.146997	3.33104e-08
0.147365	3.34765e-08
0.147732	3.36441e-08
0.1481	3.38172e-08
0.148467	3.39998e-08
0.148835	3.41956e-08
0.149202	3.44081e-08
0.14957	3.46401e-08
0.149937	3.48944e-08
0.150305	3.51727e-08
0.150672	3.54765e-08
0.15104	3.58064e-08
0.151407	3.61626e-08
0.151775	3.65447e-08
0.152142	3.69517e-08
0.15251	3.73822e-08
0.152877	3.78346e-08
0.153245	3.83067e-08
0.153612	3.87965e-08
0.15398	3.93018e-08
0.154347	3.98204e-08
0.154715	4.03501e-08
0.155082	4.08891e-08
0.15545	4.14358e-08
0.155817	4.19885e-08
0.156185	4.2546e-08
0.156552	4.31075e-08
0.15692	4.3672e-08
0.157287	4.42391e-08
0.157655	4.48081e-08
0.158022	4.53788e-08
0.15839	4.59507e-08
0.158757	4.65234e-08
0.159125	4.70966e-08
0.159492	4.76695e-08
0.15986	4.82417e-08
0.160227	4.88123e-08
0.160595	4.93804e-08
0.160962	4.99452e-08
0.16133	5.05058e-08
0.161697	5.10611e-08
0.162065	5.16104e-08
0.162432	5.21529e-08
0.162799	5.26883e-08
0.163167	5.32161e-08
0.163534	5.37365e-08
0.163902	5.42499e-08
0.164269	5.47569e-08
0.164637	5.52585e-08
0.165004	5.57562e-08
0.165372	5.62514e-08
0.165739	5.67462e-08
0.166107	5.72425e-08
0.166474	5.77423e-08
0.166842	5.8248e-08
0.167209	5.87616e-08
0.167577	5.92852e-08
0.167944	5.98205e-08
0.168312	6.03694e-08
0.168679	6.09333e-08
0.169047	6.15133e-08
0.169414	6.21106e-08
0.169782	6.27258e-08
0.170149	6.33597e-08
0.170517	6.40126e-08
0.170884	6.46848e-08
0.171252	6.53767e-08
0.171619	6.60884e-08
0.171987	6.68202e-08
0.172354	6.75721e-08
0.172722	6.83443e-08
0.173089	6.91368e-08
0.173457	6.99494e-08
0.173824	7.07819e-08
0.174192	7.16334e-08
0.174559	7.25031e-08
0.174927	7.33891e-08
0.175294	7.42894e-08
0.175662	7.52009e-08
0.176029	7.61199e-08
0.176397	7.70418e-08
0.176764	7.79612e-08
0.177132	7.88721e-08
0.177499	7.97676e-08
0.177867	8.06403e-08
0.178234	8.14825e-08
0.178602	8.22865e-08
0.178969	8.30448e-08
0.179337	8.37501e-08
0.179704	8.43962e-08
0.180072	8.49781e-08
0.180439	8.54921e-08
0.180807	8.59362e-08
0.181174	8.63107e-08
0.181542	8.66177e-08
0.181909	8.68619e-08
0.182277	8.70501e-08
0.182644	8.71916e-08
0.183012	8.72975e-08
0.183379	8.73808e-08
0.183747	8.74562e-08
0.184114	8.75392e-08
0.184482	8.7646e-08
0.184849	8.77927e-08
0.185217	8.7995e-08
0.185584	8.82674e-08
0.185952	8.86226e-08
0.186319	8.90712e-08
0.186687	8.96213e-08
0.187054	9.02776e-08
0.187422	9.10417e-08
0.187789	9.19118e-08
0.188157	9.28826e-08
0.188524	9.39452e-08
0.188892	9.50878e-08
0.189259	9.62957e-08
0.189627	9.75519e-08
0.189994	9.88375e-08
0.190361	1.00133e-07
0.190729	1.01417e-07
0.191096	1.02671e-07
0.191464	1.03874e-07
0.191831	1.0501e-07
0.192199	1.06062e-07
0.192566	1.07019e-07
0.192934	1.07872e-07
0.193301	1.08613e-07
0.193669	1.09241e-07
0.194036	1.09758e-07
0.194404	1.10169e-07
0.194771	1.10483e-07
0.195139	1.10713e-07
0.195506	1.10872e-07
0.195874	1.10978e-07
0.196241	1.11049e-07
0.196609	1.11107e-07
0.196976	1.1117e-07
0.197344	1.11259e-07
0.197711	1.11393e-07
0.198079	1.11591e-07
0.198446	1.11867e-07
0.198814	1.12237e-07
0.199181	1.1271e-07
0.199549	1.13296e-07
0.199916	1.14e-07
0.200284	1.14824e-07
0.200651	1.15768e-07
0.201019	1.16829e-07
0.201386	1.18001e-07
0.201754	1.19278e-07
0.202121	1.2065e-07
0.202489	1.22105e-07
0.202856	1.23634e-07
0.203224	1.25224e-07
0.203591	1.26863e-07
0.203959	1.28539e-07
0.204326	1.30242e-07
0.204694	1.31962e-07
0.205061	1.3369e-07
0.205429	1.3542e-07
0.205796	1.37144e-07
0.206164	1.3886e-07
0.206531	1.40565e-07
0.206899	1.42258e-07
0.207266	1.4394e-07
0.207634	1.45612e-07
0.208001	1.47278e-07
0.208369	1.48942e-07
0.208736	1.50607e-07
0.209104	1.52278e-07
0.209471	1.53961e-07
0.209839	1.55659e-07
0.210206	1.57378e-07
0.210574	1.5912e-07
0.210941	1.60888e-07
0.211309	1.62683e-07
0.211676	1.64507e-07
0.212044	1.66359e-07
0.212411	1.68236e-07
0.212779	1.70136e-07
0.213146	1.72054e-07
0.213514	1.73985e-07
0.213881	1.75922e-07
0.214249	1.77859e-07
0.214616	1.79787e-07
0.214984	1.81698e-07
0.215351	1.83584e-07
0.215719	1.85437e-07
0.216086	1.87249e-07
0.216454	1.89012e-07
0.216821	1.9072e-07
0.217188	1.92367e-07
0.217556	1.93948e-07
0.217923	1.95461e-07
0.218291	1.96904e-07
0.218658	1.98276e-07
0.219026	1.99578e-07
0.219393	2.00813e-07
0.219761	2.01984e-07
0.220128	2.03098e-07
0.220496	2.04159e-07
0.220863	2.05175e-07
0.221231	2.06154e-07
0.221598	2.07104e-07
0.221966	2.08034e-07
0.222333	2.08951e-07
0.222701	2.09865e-07
0.223068	2.10782e-07
0.223436	2.1171e-07
0.223803	2.12656e-07
0.224171	2.13623e-07
0.224538	2.14616e-07
0.224906	2.15638e-07
0.225273	2.16692e-07
0.225641	2.17776e-07
0.226008	2.18892e-07
0.226376	2.20039e-07
0.226743	2.21214e-07
0.227111	2.22416e-07
0.227478	2.23643e-07
0.227846	2.24892e-07
0.228213	2.26162e-07
0.228581	2.27451e-07
0.228948	2.2876e-07
0.229316	2.30089e-07
0.229683	2.31438e-07
0.230051	2.32811e-07
0.230418	2.34211e-07
0.230786	2.35643e-07
0.231153	2.37112e-07
0.231521	2.38624e-07
0.231888	2.40185e-07
0.232256	2.41804e-07
0.232623	2.43485e-07
0.232991	2.45235e-07
0.233358	2.47059e-07
0.233726	2.48962e-07
0.234093	2.50947e-07
0.234461	2.53015e-07
0.234828	2.55165e-07
0.235196	2.57397e-07
0.235563	2.59706e-07
0.235931	2.62089e-07
0.236298	2.64538e-07
0.236666	2.67048e-07
0.237033	2.69611e-07
0.237401	2.7222e-07
0.237768	2.74867e-07
0.238136	2.77547e-07
0.238503	2.80256e-07
0.238871	2.8299e-07
0.239238	2.85749e-07
0.239606	2.88535e-07
0.239973	2.91352e-07
0.240341	2.94205e-07
0.240708	2.97105e-07
0.241076	3.00062e-07
0.241443	3.03087e-07
0.241811	3.06193e-07
0.242178	3.09393e-07
0.242546	3.12697e-07
0.242913	3.16116e-07
0.243281	3.19656e-07
0.243648	3.2332e-07
0.244015	3.27105e-07
0.244383	3.31005e-07
0.24475	3.35006e-07
0.245118	3.39088e-07
0.245485	3.43224e-07
0.245853	3.47384e-07
0.24622	3.51527e-07
0.246588	3.55611e-07
0.246955	3.59587e-07
0.247323	3.63404e-07
0.24769	3.67011e-07
0.248058	3.70355e-07
0.248425	3.73385e-07
0.248793	3.76055e-07
0.24916	3.78323e-07
0.249528	3.80154e-07
0.249895	3.81524e-07
0.250263	3.82417e-07
0.25063	3.82827e-07
0.250998	3.82762e-07
0.251365	3.82243e-07
0.251733	3.81299e-07
0.2521	3.79976e-07
0.252468	3.78327e-07
0.252835	3.76416e-07
0.253203	3.74317e-07
0.25357	3.72108e-07
0.253938	3.69874e-07
0.254305	3.67698e-07
0.254673	3.65668e-07
0.25504	3.63866e-07
0.255408	3.62371e-07
0.255775	3.61253e-07
0.256143	3.60577e-07
0.25651	3.60394e-07
0.256878	3.60744e-07
0.257245	3.61656e-07
0.257613	3.63145e-07
0.25798	3.6521e-07
0.258348	3.67841e-07
0.258715	3.71012e-07
0.259083	3.74688e-07
0.25945	3.78821e-07
0.259818	3.83356e-07
0.260185	3.88231e-07
0.260553	3.93378e-07
0.26092	3.98727e-07
0.261288	4.04204e-07
0.261655	4.0974e-07
0.262023	4.15264e-07
0.26239	4.20713e-07
0.262758	4.26029e-07
0.263125	4.31159e-07
0.263493	4.3606e-07
0.26386	4.40698e-07
0.264228	4.45048e-07
0.264595	4.49094e-07
0.264963	4.52832e-07
0.26533	4.56266e-07
0.265698	4.5941e-07
0.266065	4.62285e-07
0.266433	4.64921e-07
0.2668	4.67357e-07
0.267168	4.69634e-07
0.267535	4.71802e-07
0.267903	4.73911e-07
0.26827	4.76014e-07
0.268638	4.78168e-07
0.269005	4.80426e-07
0.269373	4.82842e-07
0.26974	4.85465e-07
0.270108	4.8834e-07
0.270475	4.91509e-07
0.270843	4.95004e-07
0.27121	4.98852e-07
0.271577	5.03069e-07
0.271945	5.07663e-07
0.272312	5.12633e-07
0.27268	5.17966e-07
0.273047	5.23639e-07
0.273415	5.29621e-07
0.273782	5.35869e-07
0.27415	5.42333e-07
0.274517	5.48954e-07
0.274885	5.55666e-07
0.275252	5.62402e-07
0.27562	5.69087e-07
0.275987	5.7565e-07
0.276355	5.82016e-07
0.276722	5.88119e-07
0.27709	5.93893e-07
0.277457	5.99283e-07
0.277825	6.04241e-07
0.278192	6.08732e-07
0.27856	6.12732e-07
0.278927	6.16228e-07
0.279295	6.19224e-07
0.279662	6.21734e-07
0.28003	6.23786e-07
0.280397	6.25423e-07
0.280765	6.26693e-07
0.281132	6.27659e-07
0.2815	6.28387e-07
0.281867	6.2895e-07
0.282235	6.29422e-07
0.282602	6.2988e-07
0.28297	6.30396e-07
0.283337	6.31038e-07
0.283705	6.31869e-07
0.284072	6.32943e-07
0.28444	6.34304e-07
0.284807	6.35986e-07
0.285175	6.38012e-07
0.285542	6.40393e-07
0.28591	6.43131e-07
0.286277	6.46215e-07
0.286645	6.49628e-07
0.287012	6.53343e-07
0.28738	6.57326e-07
0.287747	6.61542e-07
0.288115	6.6595e-07
0.288482	6.7051e-07
0.28885	6.75181e-07
0.289217	6.79927e-07
0.289585	6.84715e-07
0.289952	6.89516e-07
0.29032	6.94308e-07
0.290687	6.99077e-07
0.291055	7.03816e-07
0.291422	7.08523e-07
0.29179	7.13206e-07
0.292157	7.17881e-07
0.292525	7.22568e-07
0.292892	7.27294e-07
0.29326	7.32092e-07
0.293627	7.36997e-07
0.293995	7.42048e-07
0.294362	7.47285e-07
0.29473	7.52748e-07
0.295097	7.58475e-07
0.295465	7.64502e-07
0.295832	7.7086e-07
0.2962	7.77573e-07
0.296567	7.84657e-07
0.296935	7.92121e-07
0.297302	7.99962e-07
0.29767	8.08164e-07
0.298037	8.16701e-07
0.298404	8.25533e-07
0.298772	8.34606e-07
0.299139	8.43854e-07
0.299507	8.53198e-07
0.299874	8.62547e-07
0.300242	8.71804e-07
0.300609	8.80861e-07
0.300977	8.89608e-07
0.301344	8.97934e-07
0.301712	9.0573e-07
0.302079	9.12893e-07
0.302447	9.1933e-07
0.302814	9.24963e-07
0.303182	9.29729e-07
0.303549	9.33588e-07
0.303917	9.36522e-07
0.304284	9.38538e-07
0.304652	9.39668e-07
0.305019	9.39971e-07
0.305387	9.39531e-07
0.305754	9.38454e-07
0.306122	9.36867e-07
0.306489	9.34913e-07
0.306857	9.32747e-07
0.307224	9.30531e-07
0.307592	9.28428e-07
0.307959	9.26598e-07
0.308327	9.25188e-07
0.308694	9.24334e-07
0.309062	9.24151e-07
0.309429	9.2473e-07
0.309797	9.2614e-07
0.310164	9.28418e-07
0.310532	9.31578e-07
0.310899	9.35605e-07
0.311267	9.40462e-07
0.311634	9.46089e-07
0.312002	9.52409e-07
0.312369	9.59335e-07
0.312737	9.66771e-07
0.313104	9.7462e-07
0.313472	9.82791e-07
0.313839	9.91198e-07
0.314207	9.99772e-07
0.314574	1.00846e-06
0.314942	1.01722e-06
0.315309	1.02604e-06
0.315677	1.03493e-06
0.316044	1.0439e-06
0.316412	1.053e-06
0.316779	1.06228e-06
0.317147	1.0718e-06
0.317514	1.08163e-06
0.317882	1.09182e-06
0.318249	1.10243e-06
0.318617	1.11352e-06
0.318984	1.12511e-06
0.319352	1.13721e-06
0.319719	1.14982e-06
0.320087	1.1629e-06
0.320454	1.17641e-06
0.320822	1.19027e-06
0.321189	1.20439e-06
0.321557	1.21867e-06
0.321924	1.23298e-06
0.322292	1.2472e-06
0.322659	1.26121e-06
0.323027	1.27488e-06
0.323394	1.28811e-06
0.323762	1.30079e-06
0.324129	1.31285e-06
0.324497	1.32423e-06
0.324864	1.3349e-06
0.325232	1.34484e-06
0.325599	1.35407e-06
0.325966	1.36263e-06
0.326334	1.37058e-06
0.326701	1.378e-06
0.327069	1.38498e-06
0.327436	1.39164e-06
0.327804	1.39809e-06
0.328171	1.40445e-06
0.328539	1.41082e-06
0.328906	1.41733e-06
0.329274	1.42408e-06
0.329641	1.43115e-06
0.330009	1.43864e-06
0.330376	1.44661e-06
0.330744	1.45511e-06
0.331111	1.46418e-06
0.331479	1.47385e-06
0.331846	1.48413e-06
0.332214	1.49502e-06
0.332581	1.50651e-06
0.332949	1.5186e-06
0.333316	1.53124e-06
0.333684	1.54441e-06
0.334051	1.55808e-06
0.334419	1.57219e-06
0.334786	1.58668e-06
0.335154	1.60151e-06
0.335521	1.61659e-06
0.335889	1.63184e-06
0.336256	1.64718e-06
0.336624	1.66248e-06
0.336991	1.67764e-06
0.337359	1.69252e-06
0.337726	1.70697e-06
0.338094	1.72085e-06
0.338461	1.73398e-06
0.338829	1.7462e-06
0.339196	1.75735e-06
0.339564	1.76725e-06
0.339931	1.77575e-06
0.340299	1.78272e-06
0.340666	1.78803e-06
0.341034	1.79159e-06
0.341401	1.79334e-06
0.341769	1.79327e-06
0.342136	1.79138e-06
0.342504	1.78774e-06
0.342871	1.78246e-06
0.343239	1.77568e-06
0.343606	1.7676e-06
0.343974	1.75844e-06
0.344341	1.74846e-06
0.344709	1.73796e-06
0.345076	1.72724e-06
0.345444	1.71663e-06
0.345811	1.70644e-06
0.346179	1.69699e-06
0.346546	1.68858e-06
0.346914	1.68149e-06
0.347281	1.67595e-06
