# Frequency (eV) 	 Current Real 	 Imaginary
0	-0.00357204	0
0.000367493	-0.00357197	-0.000307307
0.000734986	-0.00357174	-0.000614613
0.00110248	-0.00357137	-0.000921918
0.00146997	-0.00357085	-0.00122922
0.00183747	-0.00357018	-0.00153652
0.00220496	-0.00356936	-0.00184382
0.00257245	-0.00356839	-0.00215112
0.00293995	-0.00356728	-0.00245841
0.00330744	-0.00356601	-0.0027657
0.00367493	-0.0035646	-0.00307298
0.00404243	-0.00356304	-0.00338026
0.00440992	-0.00356133	-0.00368753
0.00477741	-0.00355948	-0.00399479
0.00514491	-0.00355747	-0.00430205
0.0055124	-0.00355532	-0.0046093
0.00587989	-0.00355302	-0.00491654
0.00624738	-0.00355058	-0.00522378
0.00661488	-0.00354799	-0.005531
0.00698237	-0.00354525	-0.00583822
0.00734986	-0.00354237	-0.00614542
0.00771736	-0.00353934	-0.00645262
0.00808485	-0.00353616	-0.0067598
0.00845234	-0.00353284	-0.00706697
0.00881984	-0.00352938	-0.00737413
0.00918733	-0.00352577	-0.00768128
0.00955482	-0.00352202	-0.00798841
0.00992232	-0.00351812	-0.00829554
0.0102898	-0.00351409	-0.00860264
0.0106573	-0.0035099	-0.00890974
0.0110248	-0.00350558	-0.00921681
0.0113923	-0.00350112	-0.00952388
0.0117598	-0.00349651	-0.00983093
0.0121273	-0.00349177	-0.010138
0.0124948	-0.00348688	-0.010445
0.0128623	-0.00348185	-0.010752
0.0132298	-0.00347669	-0.011059
0.0135972	-0.00347139	-0.0113659
0.0139647	-0.00346595	-0.0116729
0.0143322	-0.00346037	-0.0119798
0.0146997	-0.00345465	-0.0122867
0.0150672	-0.0034488	-0.0125936
0.0154347	-0.00344282	-0.0129005
0.0158022	-0.0034367	-0.0132073
0.0161697	-0.00343044	-0.0135141
0.0165372	-0.00342405	-0.013821
0.0169047	-0.00341753	-0.0141277
0.0172722	-0.00341088	-0.0144345
0.0176397	-0.00340409	-0.0147413
0.0180072	-0.00339718	-0.015048
0.0183747	-0.00339013	-0.0153547
0.0187422	-0.00338296	-0.0156614
0.0191096	-0.00337566	-0.015968
0.0194771	-0.00336823	-0.0162747
0.0198446	-0.00336067	-0.0165813
0.0202121	-0.00335299	-0.0168879
0.0205796	-0.00334518	-0.0171945
0.0209471	-0.00333725	-0.017501
0.0213146	-0.00332919	-0.0178075
0.0216821	-0.00332101	-0.018114
0.0220496	-0.00331271	-0.0184205
0.0224171	-0.00330429	-0.018727
0.0227846	-0.00329575	-0.0190334
0.0231521	-0.00328709	-0.0193398
0.0235196	-0.00327831	-0.0196462
0.0238871	-0.00326942	-0.0199525
0.0242546	-0.0032604	-0.0202589
0.024622	-0.00325128	-0.0205652
0.0249895	-0.00324203	-0.0208715
0.025357	-0.00323268	-0.0211777
0.0257245	-0.00322321	-0.021484
0.026092	-0.00321362	-0.0217902
0.0264595	-0.00320393	-0.0220964
0.026827	-0.00319413	-0.0224025
0.0271945	-0.00318422	-0.0227087
0.027562	-0.0031742	-0.0230148
0.0279295	-0.00316408	-0.0233209
0.028297	-0.00315384	-0.023627
0.0286645	-0.00314351	-0.023933
0.029032	-0.00313307	-0.024239
0.0293995	-0.00312252	-0.024545
0.029767	-0.00311188	-0.024851
0.0301344	-0.00310113	-0.025157
0.0305019	-0.00309029	-0.0254629
0.0308694	-0.00307934	-0.0257688
0.0312369	-0.0030683	-0.0260747
0.0316044	-0.00305716	-0.0263806
0.0319719	-0.00304593	-0.0266864
0.0323394	-0.0030346	-0.0269922
0.0327069	-0.00302318	-0.027298
0.0330744	-0.00301167	-0.0276038
0.0334419	-0.00300006	-0.0279096
0.0338094	-0.00298837	-0.0282153
0.0341769	-0.00297658	-0.0285211
0.0345444	-0.00296471	-0.0288268
0.0349119	-0.00295275	-0.0291324
0.0352793	-0.00294071	-0.0294381
0.0356468	-0.00292858	-0.0297438
0.0360143	-0.00291636	-0.0300494
0.0363818	-0.00290407	-0.030355
0.0367493	-0.00289169	-0.0306606
0.0371168	-0.00287923	-0.0309662
0.0374843	-0.0028667	-0.0312718
0.0378518	-0.00285408	-0.0315773
0.0382193	-0.00284139	-0.0318829
0.0385868	-0.00282862	-0.0321884
0.0389543	-0.00281578	-0.0324939
0.0393218	-0.00280286	-0.0327994
0.0396893	-0.00278988	-0.0331049
0.0400568	-0.00277682	-0.0334104
0.0404243	-0.00276369	-0.0337159
0.0407917	-0.00275049	-0.0340213
0.0411592	-0.00273722	-0.0343268
0.0415267	-0.00272389	-0.0346322
0.0418942	-0.00271049	-0.0349377
0.0422617	-0.00269702	-0.0352431
0.0426292	-0.00268349	-0.0355485
0.0429967	-0.0026699	-0.0358539
0.0433642	-0.00265625	-0.0361594
0.0437317	-0.00264253	-0.0364648
0.0440992	-0.00262876	-0.0367702
0.0444667	-0.00261493	-0.0370756
0.0448342	-0.00260104	-0.037381
0.0452017	-0.0025871	-0.0376864
0.0455692	-0.0025731	-0.0379918
0.0459367	-0.00255904	-0.0382972
0.0463041	-0.00254494	-0.0386027
0.0466716	-0.00253078	-0.0389081
0.0470391	-0.00251657	-0.0392135
0.0474066	-0.00250231	-0.0395189
0.0477741	-0.002488	-0.0398244
0.0481416	-0.00247364	-0.0401298
0.0485091	-0.00245924	-0.0404353
0.0488766	-0.00244479	-0.0407408
0.0492441	-0.0024303	-0.0410462
0.0496116	-0.00241576	-0.0413517
0.0499791	-0.00240118	-0.0416572
0.0503466	-0.00238656	-0.0419628
0.0507141	-0.0023719	-0.0422683
0.0510816	-0.00235719	-0.0425739
0.0514491	-0.00234245	-0.0428794
0.0518165	-0.00232767	-0.043185
0.052184	-0.00231286	-0.0434906
0.0525515	-0.002298	-0.0437963
0.052919	-0.00228312	-0.0441019
0.0532865	-0.00226819	-0.0444076
0.053654	-0.00225324	-0.0447133
0.0540215	-0.00223825	-0.0450191
0.054389	-0.00222323	-0.0453249
0.0547565	-0.00220818	-0.0456307
0.055124	-0.0021931	-0.0459365
0.0554915	-0.00217799	-0.0462423
0.055859	-0.00216285	-0.0465482
0.0562265	-0.00214769	-0.0468542
0.056594	-0.0021325	-0.0471602
0.0569614	-0.00211728	-0.0474662
0.0573289	-0.00210204	-0.0477722
0.0576964	-0.00208677	-0.0480783
0.0580639	-0.00207148	-0.0483844
0.0584314	-0.00205617	-0.0486906
0.0587989	-0.00204084	-0.0489968
0.0591664	-0.00202548	-0.0493031
0.0595339	-0.00201011	-0.0496094
0.0599014	-0.00199471	-0.0499158
0.0602689	-0.0019793	-0.0502222
0.0606364	-0.00196386	-0.0505287
0.0610039	-0.00194841	-0.0508353
0.0613714	-0.00193294	-0.0511418
0.0617389	-0.00191746	-0.0514485
0.0621064	-0.00190196	-0.0517552
0.0624738	-0.00188644	-0.052062
0.0628413	-0.00187091	-0.0523688
0.0632088	-0.00185537	-0.0526757
0.0635763	-0.00183981	-0.0529827
0.0639438	-0.00182424	-0.0532897
0.0643113	-0.00180866	-0.0535968
0.0646788	-0.00179306	-0.053904
0.0650463	-0.00177745	-0.0542112
0.0654138	-0.00176184	-0.0545186
0.0657813	-0.00174621	-0.054826
0.0661488	-0.00173057	-0.0551335
0.0665163	-0.00171492	-0.055441
0.0668838	-0.00169926	-0.0557487
0.0672513	-0.0016836	-0.0560564
0.0676188	-0.00166792	-0.0563642
0.0679862	-0.00165224	-0.0566721
0.0683537	-0.00163655	-0.0569801
0.0687212	-0.00162085	-0.0572882
0.0690887	-0.00160515	-0.0575963
0.0694562	-0.00158943	-0.0579046
0.0698237	-0.00157372	-0.058213
0.0701912	-0.00155799	-0.0585214
0.0705587	-0.00154226	-0.05883
0.0709262	-0.00152652	-0.0591387
0.0712937	-0.00151078	-0.0594474
0.0716612	-0.00149503	-0.0597563
0.0720287	-0.00147928	-0.0600653
0.0723962	-0.00146352	-0.0603744
0.0727637	-0.00144776	-0.0606836
0.0731312	-0.00143199	-0.0609929
0.0734986	-0.00141622	-0.0613023
0.0738661	-0.00140044	-0.0616119
0.0742336	-0.00138466	-0.0619215
0.0746011	-0.00136887	-0.0622313
0.0749686	-0.00135308	-0.0625412
0.0753361	-0.00133729	-0.0628513
0.0757036	-0.00132149	-0.0631614
0.0760711	-0.00130568	-0.0634717
0.0764386	-0.00128988	-0.0637821
0.0768061	-0.00127406	-0.0640927
0.0771736	-0.00125824	-0.0644034
0.0775411	-0.00124242	-0.0647142
0.0779086	-0.00122659	-0.0650251
0.0782761	-0.00121076	-0.0653362
0.0786435	-0.00119492	-0.0656475
0.079011	-0.00117908	-0.0659589
0.0793785	-0.00116323	-0.0662704
0.079746	-0.00114737	-0.0665821
0.0801135	-0.00113151	-0.0668939
0.080481	-0.00111564	-0.0672059
0.0808485	-0.00109977	-0.067518
0.081216	-0.00108389	-0.0678303
0.0815835	-0.001068	-0.0681427
0.081951	-0.0010521	-0.0684553
0.0823185	-0.0010362	-0.0687681
0.082686	-0.00102029	-0.069081
0.0830535	-0.00100437	-0.0693941
0.083421	-0.000988436	-0.0697073
0.0837885	-0.000972497	-0.0700208
0.0841559	-0.000956547	-0.0703344
0.0845234	-0.000940587	-0.0706481
0.0848909	-0.000924617	-0.0709621
0.0852584	-0.000908635	-0.0712762
0.0856259	-0.000892641	-0.0715905
0.0859934	-0.000876635	-0.0719049
0.0863609	-0.000860615	-0.0722196
0.0867284	-0.000844583	-0.0725344
0.0870959	-0.000828536	-0.0728495
0.0874634	-0.000812474	-0.0731647
0.0878309	-0.000796398	-0.0734801
0.0881984	-0.000780305	-0.0737956
0.0885659	-0.000764195	-0.0741114
0.0889334	-0.000748068	-0.0744274
0.0893009	-0.000731924	-0.0747436
0.0896683	-0.00071576	-0.07506
0.0900358	-0.000699577	-0.0753765
0.0904033	-0.000683374	-0.0756933
0.0907708	-0.00066715	-0.0760103
0.0911383	-0.000650904	-0.0763275
0.0915058	-0.000634636	-0.0766449
0.0918733	-0.000618344	-0.0769625
0.0922408	-0.000602028	-0.0772803
0.0926083	-0.000585688	-0.0775983
0.0929758	-0.000569321	-0.0779165
0.0933433	-0.000552927	-0.078235
0.0937108	-0.000536506	-0.0785537
0.0940783	-0.000520057	-0.0788725
0.0944458	-0.000503577	-0.0791917
0.0948133	-0.000487068	-0.079511
0.0951807	-0.000470527	-0.0798306
0.0955482	-0.000453953	-0.0801503
0.0959157	-0.000437347	-0.0804704
0.0962832	-0.000420706	-0.0807906
0.0966507	-0.000404029	-0.0811111
0.0970182	-0.000387316	-0.0814318
0.0973857	-0.000370566	-0.0817527
0.0977532	-0.000353777	-0.0820739
0.0981207	-0.000336949	-0.0823953
0.0984882	-0.00032008	-0.082717
0.0988557	-0.000303169	-0.0830389
0.0992232	-0.000286215	-0.0833611
0.0995907	-0.000269217	-0.0836834
0.0999582	-0.000252174	-0.0840061
0.100326	-0.000235085	-0.084329
0.100693	-0.000217948	-0.0846521
0.101061	-0.000200762	-0.0849755
0.101428	-0.000183527	-0.0852991
0.101796	-0.00016624	-0.085623
0.102163	-0.000148901	-0.0859471
0.102531	-0.000131509	-0.0862715
0.102898	-0.000114062	-0.0865962
0.103266	-9.65586e-05	-0.0869211
0.103633	-7.89981e-05	-0.0872463
0.104001	-6.1379e-05	-0.0875717
0.104368	-4.37e-05	-0.0878974
0.104736	-2.59599e-05	-0.0882234
0.105103	-8.15733e-06	-0.0885496
0.105471	9.70904e-06	-0.0888762
0.105838	2.76405e-05	-0.0892029
0.106206	4.56385e-05	-0.08953
0.106573	6.37042e-05	-0.0898573
0.106941	8.18391e-05	-0.0901849
0.107308	0.000100044	-0.0905127
0.107676	0.000118322	-0.0908409
0.108043	0.000136672	-0.0911693
0.108411	0.000155097	-0.091498
0.108778	0.000173599	-0.0918269
0.109145	0.000192177	-0.0921562
0.109513	0.000210835	-0.0924857
0.10988	0.000229573	-0.0928156
0.110248	0.000248392	-0.0931457
0.110615	0.000267295	-0.093476
0.110983	0.000286282	-0.0938067
0.11135	0.000305356	-0.0941377
0.111718	0.000324516	-0.0944689
0.112085	0.000343766	-0.0948004
0.112453	0.000363106	-0.0951323
0.11282	0.000382538	-0.0954644
0.113188	0.000402063	-0.0957968
0.113555	0.000421683	-0.0961295
0.113923	0.000441399	-0.0964625
0.11429	0.000461213	-0.0967958
0.114658	0.000481127	-0.0971294
0.115025	0.000501141	-0.0974633
0.115393	0.000521257	-0.0977975
0.11576	0.000541477	-0.0981319
0.116128	0.000561802	-0.0984667
0.116495	0.000582234	-0.0988018
0.116863	0.000602774	-0.0991372
0.11723	0.000623423	-0.0994729
0.117598	0.000644184	-0.0998089
0.117965	0.000665058	-0.100145
0.118333	0.000686045	-0.100482
0.1187	0.000707149	-0.100819
0.119068	0.00072837	-0.101156
0.119435	0.000749709	-0.101493
0.119803	0.000771169	-0.101831
0.12017	0.00079275	-0.102169
0.120538	0.000814455	-0.102508
0.120905	0.000836284	-0.102847
0.121273	0.00085824	-0.103186
0.12164	0.000880323	-0.103525
0.122008	0.000902536	-0.103865
0.122375	0.000924879	-0.104205
0.122743	0.000947355	-0.104545
0.12311	0.000969964	-0.104886
0.123478	0.000992709	-0.105227
0.123845	0.00101559	-0.105568
0.124213	0.00103861	-0.105909
0.12458	0.00106177	-0.106251
0.124948	0.00108507	-0.106593
0.125315	0.00110851	-0.106936
0.125683	0.0011321	-0.107279
0.12605	0.00115583	-0.107622
0.126418	0.00117971	-0.107965
0.126785	0.00120374	-0.108309
0.127153	0.00122791	-0.108653
0.12752	0.00125224	-0.108998
0.127888	0.00127672	-0.109342
0.128255	0.00130136	-0.109688
0.128623	0.00132615	-0.110033
0.12899	0.0013511	-0.110379
0.129358	0.0013762	-0.110725
0.129725	0.00140147	-0.111071
0.130093	0.0014269	-0.111418
0.13046	0.00145249	-0.111765
0.130828	0.00147824	-0.112112
0.131195	0.00150416	-0.112459
0.131563	0.00153024	-0.112807
0.13193	0.00155649	-0.113156
0.132298	0.00158292	-0.113504
0.132665	0.00160951	-0.113853
0.133033	0.00163627	-0.114202
0.1334	0.00166321	-0.114552
0.133768	0.00169032	-0.114902
0.134135	0.00171761	-0.115252
0.134503	0.00174507	-0.115602
0.13487	0.00177271	-0.115953
0.135238	0.00180053	-0.116304
0.135605	0.00182854	-0.116656
0.135972	0.00185672	-0.117008
0.13634	0.00188509	-0.11736
0.136707	0.00191364	-0.117712
0.137075	0.00194238	-0.118065
0.137442	0.0019713	-0.118418
0.13781	0.00200041	-0.118771
0.138177	0.00202971	-0.119125
0.138545	0.0020592	-0.119479
0.138912	0.00208888	-0.119834
0.13928	0.00211876	-0.120188
0.139647	0.00214882	-0.120543
0.140015	0.00217908	-0.120899
0.140382	0.00220954	-0.121254
0.14075	0.00224019	-0.12161
0.141117	0.00227104	-0.121967
0.141485	0.00230209	-0.122323
0.141852	0.00233334	-0.12268
0.14222	0.00236479	-0.123037
0.142587	0.00239644	-0.123395
0.142955	0.00242829	-0.123753
0.143322	0.00246035	-0.124111
0.14369	0.00249261	-0.12447
0.144057	0.00252507	-0.124828
0.144425	0.00255774	-0.125188
0.144792	0.00259062	-0.125547
0.14516	0.00262371	-0.125907
0.145527	0.002657	-0.126267
0.145895	0.00269051	-0.126627
0.146262	0.00272422	-0.126988
0.14663	0.00275815	-0.127349
0.146997	0.00279228	-0.127711
0.147365	0.00282663	-0.128072
0.147732	0.00286119	-0.128434
0.1481	0.00289597	-0.128797
0.148467	0.00293096	-0.129159
0.148835	0.00296617	-0.129522
0.149202	0.00300159	-0.129886
0.14957	0.00303723	-0.130249
0.149937	0.00307308	-0.130613
0.150305	0.00310916	-0.130977
0.150672	0.00314545	-0.131342
0.15104	0.00318196	-0.131707
0.151407	0.00321869	-0.132072
0.151775	0.00325564	-0.132438
0.152142	0.00329281	-0.132803
0.15251	0.0033302	-0.133169
0.152877	0.00336781	-0.133536
0.153245	0.00340565	-0.133903
0.153612	0.00344371	-0.13427
0.15398	0.00348199	-0.134637
0.154347	0.00352049	-0.135005
0.154715	0.00355921	-0.135373
0.155082	0.00359816	-0.135741
0.15545	0.00363734	-0.13611
0.155817	0.00367674	-0.136479
0.156185	0.00371636	-0.136848
0.156552	0.00375621	-0.137217
0.15692	0.00379628	-0.137587
0.157287	0.00383658	-0.137957
0.157655	0.00387711	-0.138328
0.158022	0.00391786	-0.138699
0.15839	0.00395883	-0.13907
0.158757	0.00400004	-0.139441
0.159125	0.00404147	-0.139813
0.159492	0.00408312	-0.140185
0.15986	0.004125	-0.140557
0.160227	0.00416711	-0.14093
0.160595	0.00420945	-0.141303
0.160962	0.00425201	-0.141676
0.16133	0.0042948	-0.142049
0.161697	0.00433782	-0.142423
0.162065	0.00438106	-0.142797
0.162432	0.00442453	-0.143172
0.162799	0.00446823	-0.143546
0.163167	0.00451215	-0.143921
0.163534	0.0045563	-0.144297
0.163902	0.00460067	-0.144672
0.164269	0.00464528	-0.145048
0.164637	0.0046901	-0.145425
0.165004	0.00473516	-0.145801
0.165372	0.00478044	-0.146178
0.165739	0.00482594	-0.146555
0.166107	0.00487167	-0.146933
0.166474	0.00491763	-0.147311
0.166842	0.00496381	-0.147689
0.167209	0.00501021	-0.148067
0.167577	0.00505684	-0.148446
0.167944	0.00510369	-0.148825
0.168312	0.00515077	-0.149204
0.168679	0.00519807	-0.149584
0.169047	0.00524559	-0.149964
0.169414	0.00529334	-0.150344
0.169782	0.0053413	-0.150724
0.170149	0.00538949	-0.151105
0.170517	0.0054379	-0.151486
0.170884	0.00548653	-0.151868
0.171252	0.00553538	-0.152249
0.171619	0.00558445	-0.152631
0.171987	0.00563374	-0.153014
0.172354	0.00568325	-0.153396
0.172722	0.00573297	-0.153779
0.173089	0.00578292	-0.154162
0.173457	0.00583308	-0.154546
0.173824	0.00588345	-0.15493
0.174192	0.00593405	-0.155314
0.174559	0.00598485	-0.155698
0.174927	0.00603588	-0.156083
0.175294	0.00608711	-0.156468
0.175662	0.00613856	-0.156854
0.176029	0.00619022	-0.157239
0.176397	0.0062421	-0.157625
0.176764	0.00629418	-0.158011
0.177132	0.00634648	-0.158398
0.177499	0.00639899	-0.158785
0.177867	0.0064517	-0.159172
0.178234	0.00650462	-0.15956
0.178602	0.00655776	-0.159947
0.178969	0.00661109	-0.160336
0.179337	0.00666464	-0.160724
0.179704	0.00671839	-0.161113
0.180072	0.00677234	-0.161502
0.180439	0.00682649	-0.161891
0.180807	0.00688085	-0.162281
0.181174	0.00693542	-0.162671
0.181542	0.00699018	-0.163061
0.181909	0.00704514	-0.163452
0.182277	0.0071003	-0.163843
0.182644	0.00715566	-0.164234
0.183012	0.00721122	-0.164625
0.183379	0.00726697	-0.165017
0.183747	0.00732292	-0.165409
0.184114	0.00737907	-0.165802
0.184482	0.00743541	-0.166195
0.184849	0.00749194	-0.166588
0.185217	0.00754866	-0.166981
0.185584	0.00760558	-0.167375
0.185952	0.00766268	-0.167769
0.186319	0.00771998	-0.168164
0.186687	0.00777746	-0.168558
0.187054	0.00783513	-0.168953
0.187422	0.00789298	-0.169349
0.187789	0.00795102	-0.169745
0.188157	0.00800925	-0.170141
0.188524	0.00806766	-0.170537
0.188892	0.00812625	-0.170934
0.189259	0.00818502	-0.171331
0.189627	0.00824397	-0.171728
0.189994	0.0083031	-0.172126
0.190361	0.00836241	-0.172524
0.190729	0.0084219	-0.172922
0.191096	0.00848156	-0.173321
0.191464	0.0085414	-0.17372
0.191831	0.00860142	-0.174119
0.192199	0.0086616	-0.174519
0.192566	0.00872196	-0.174919
0.192934	0.00878249	-0.17532
0.193301	0.00884319	-0.17572
0.193669	0.00890406	-0.176121
0.194036	0.0089651	-0.176523
0.194404	0.0090263	-0.176925
0.194771	0.00908767	-0.177327
0.195139	0.00914921	-0.177729
0.195506	0.00921091	-0.178132
0.195874	0.00927277	-0.178535
0.196241	0.0093348	-0.178939
0.196609	0.00939698	-0.179343
0.196976	0.00945933	-0.179747
0.197344	0.00952183	-0.180152
0.197711	0.0095845	-0.180557
0.198079	0.00964732	-0.180962
0.198446	0.0097103	-0.181368
0.198814	0.00977343	-0.181774
0.199181	0.00983672	-0.182181
0.199549	0.00990016	-0.182588
0.199916	0.00996375	-0.182995
0.200284	0.0100275	-0.183403
0.200651	0.0100914	-0.183811
0.201019	0.0101554	-0.184219
0.201386	0.0102196	-0.184628
0.201754	0.010284	-0.185037
0.202121	0.0103485	-0.185447
0.202489	0.0104131	-0.185857
0.202856	0.0104779	-0.186267
0.203224	0.0105428	-0.186678
0.203591	0.0106079	-0.187089
0.203959	0.0106731	-0.1875
0.204326	0.0107384	-0.187912
0.204694	0.0108039	-0.188325
0.205061	0.0108696	-0.188738
0.205429	0.0109353	-0.189151
0.205796	0.0110012	-0.189564
0.206164	0.0110673	-0.189978
0.206531	0.0111335	-0.190393
0.206899	0.0111998	-0.190808
0.207266	0.0112663	-0.191223
0.207634	0.0113328	-0.191639
0.208001	0.0113996	-0.192055
0.208369	0.0114664	-0.192471
0.208736	0.0115334	-0.192888
0.209104	0.0116006	-0.193306
0.209471	0.0116678	-0.193724
0.209839	0.0117352	-0.194142
0.210206	0.0118027	-0.194561
0.210574	0.0118704	-0.19498
0.210941	0.0119381	-0.195399
0.211309	0.0120061	-0.19582
0.211676	0.0120741	-0.19624
0.212044	0.0121423	-0.196661
0.212411	0.0122105	-0.197083
0.212779	0.012279	-0.197505
0.213146	0.0123475	-0.197927
0.213514	0.0124162	-0.19835
0.213881	0.012485	-0.198773
0.214249	0.0125539	-0.199197
0.214616	0.0126229	-0.199621
0.214984	0.0126921	-0.200046
0.215351	0.0127614	-0.200472
0.215719	0.0128308	-0.200897
0.216086	0.0129004	-0.201324
0.216454	0.01297	-0.20175
0.216821	0.0130398	-0.202178
0.217188	0.0131097	-0.202605
0.217556	0.0131798	-0.203034
0.217923	0.0132499	-0.203462
0.218291	0.0133202	-0.203892
0.218658	0.0133906	-0.204322
0.219026	0.0134611	-0.204752
0.219393	0.0135318	-0.205183
0.219761	0.0136026	-0.205614
0.220128	0.0136735	-0.206046
0.220496	0.0137445	-0.206479
0.220863	0.0138156	-0.206912
0.221231	0.0138869	-0.207345
0.221598	0.0139583	-0.207779
0.221966	0.0140298	-0.208214
0.222333	0.0141014	-0.208649
0.222701	0.0141731	-0.209085
0.223068	0.014245	-0.209521
0.223436	0.014317	-0.209958
0.223803	0.0143892	-0.210395
0.224171	0.0144614	-0.210833
0.224538	0.0145338	-0.211272
0.224906	0.0146063	-0.211711
0.225273	0.0146789	-0.212151
0.225641	0.0147517	-0.212591
0.226008	0.0148245	-0.213032
0.226376	0.0148975	-0.213473
0.226743	0.0149707	-0.213915
0.227111	0.0150439	-0.214358
0.227478	0.0151173	-0.214801
0.227846	0.0151908	-0.215245
0.228213	0.0152645	-0.21569
0.228581	0.0153383	-0.216135
0.228948	0.0154122	-0.216581
0.229316	0.0154862	-0.217027
0.229683	0.0155604	-0.217474
0.230051	0.0156347	-0.217922
0.230418	0.0157092	-0.21837
0.230786	0.0157837	-0.218819
0.231153	0.0158585	-0.219268
0.231521	0.0159333	-0.219719
0.231888	0.0160083	-0.22017
0.232256	0.0160834	-0.220621
0.232623	0.0161587	-0.221073
0.232991	0.0162341	-0.221526
0.233358	0.0163097	-0.221979
0.233726	0.0163854	-0.222434
0.234093	0.0164613	-0.222888
0.234461	0.0165372	-0.223344
0.234828	0.0166134	-0.2238
