# Frequency (eV) 	 Current Real 	 Imaginary
0	-0.0279554	0
0.000367493	-0.0278619	-0.00253557
0.000734986	-0.0275801	-0.00506708
0.00110248	-0.0271063	-0.00758966
0.00146997	-0.0264344	-0.0100968
0.00183747	-0.0255568	-0.0125799
0.00220496	-0.0244645	-0.0150271
0.00257245	-0.0231483	-0.0174234
0.00293995	-0.0215993	-0.0197501
0.00330744	-0.0198099	-0.0219847
0.00367493	-0.0177747	-0.024101
0.00404243	-0.0154918	-0.0260692
0.00440992	-0.012963	-0.0278567
0.00477741	-0.0101953	-0.0294283
0.00514491	-0.0072013	-0.0307476
0.0055124	-0.00399966	-0.0317773
0.00587989	-0.000615678	-0.0324809
0.00624738	0.00291862	-0.0328237
0.00661488	0.00656454	-0.0327738
0.00698237	0.010277	-0.0323037
0.00734986	0.0140049	-0.0313914
0.00771736	0.0176921	-0.0300215
0.00808485	0.0212783	-0.0281865
0.00845234	0.0247	-0.0258872
0.00881984	0.0278921	-0.0231343
0.00918733	0.0307891	-0.0199477
0.00955482	0.0333272	-0.0163578
0.00992232	0.0354452	-0.0124051
0.0102898	0.0370867	-0.00813965
0.0106573	0.0382016	-0.00362094
0.0110248	0.0387475	0.00108323
0.0113923	0.0386913	0.00589777
0.0117598	0.0380105	0.0107416
0.0121273	0.036694	0.0155294
0.0124948	0.0347432	0.020173
0.0128623	0.0321721	0.0245836
0.0132298	0.0290082	0.0286736
0.0135972	0.0252917	0.0323587
0.0139647	0.0210754	0.0355596
0.0143322	0.0164243	0.0382046
0.0146997	0.011414	0.0402308
0.0150672	0.00612949	0.041586
0.0154347	0.000663907	0.0422302
0.0158022	-0.00488366	0.0421371
0.0161697	-0.0104101	0.0412945
0.0165372	-0.0158102	0.0397052
0.0169047	-0.0209795	0.0373875
0.0172722	-0.0258158	0.0343746
0.0176397	-0.0302222	0.0307149
0.0180072	-0.0341088	0.0264703
0.0183747	-0.0373949	0.0217161
0.0187422	-0.0400109	0.0165388
0.0191096	-0.0419003	0.0110348
0.0194771	-0.0430207	0.0053083
0.0198446	-0.0433447	-0.000530893
0.0202121	-0.0428615	-0.00636956
0.0205796	-0.0415765	-0.0120936
0.0209471	-0.0395116	-0.0175903
0.0213146	-0.036705	-0.0227512
0.0216821	-0.0332102	-0.0274739
0.0220496	-0.0290953	-0.0316646
0.0224171	-0.0244413	-0.0352403
0.0227846	-0.0193405	-0.0381304
0.0231521	-0.0138946	-0.0402783
0.0235196	-0.00821245	-0.0416426
0.0238871	-0.00240791	-0.0421983
0.0242546	0.00340283	-0.0419369
0.024622	0.00910362	-0.040867
0.0249895	0.0145809	-0.0390138
0.025357	0.0197259	-0.0364186
0.0257245	0.0244374	-0.0331381
0.026092	0.0286236	-0.0292427
0.0264595	0.0322038	-0.0248153
0.026827	0.0351106	-0.0199495
0.0271945	0.0372909	-0.0147471
0.027562	0.0387071	-0.00931629
0.0279295	0.0393377	-0.0037693
0.028297	0.0391779	0.00178031
0.0286645	0.038239	0.00721987
0.029032	0.0365488	0.0124401
0.0293995	0.0341501	0.0173373
0.029767	0.0311003	0.0218157
0.0301344	0.0274695	0.0257891
0.0305019	0.0233392	0.029183
0.0308694	0.0188003	0.0319358
0.0312369	0.013951	0.034
0.0316044	0.00889484	0.035343
0.0319719	0.00373822	0.0359477
0.0323394	-0.00141182	0.0358127
0.0327069	-0.0064499	0.034952
0.0330744	-0.0112745	0.0333945
0.0334419	-0.0157901	0.0311833
0.0338094	-0.019909	0.0283742
0.0341769	-0.0235533	0.0250349
0.0345444	-0.0266562	0.0212429
0.0349119	-0.0291632	0.017084
0.0352793	-0.0310333	0.0126501
0.0356468	-0.0322393	0.0080373
0.0360143	-0.0327686	0.00334376
0.0363818	-0.0326227	-0.00133241
0.0367493	-0.0318173	-0.00589523
0.0371168	-0.0303815	-0.0102529
0.0374843	-0.0283571	-0.0143194
0.0378518	-0.0257973	-0.0180168
0.0382193	-0.0227656	-0.021276
0.0385868	-0.0193339	-0.0240386
0.0389543	-0.0155812	-0.0262576
0.0393218	-0.0115917	-0.0278984
0.0396893	-0.00745263	-0.028939
0.0400568	-0.00325267	-0.0293706
0.0404243	0.000920039	-0.029197
0.0407917	0.00497978	-0.0284348
0.0411592	0.00884499	-0.0271126
0.0415267	0.0124399	-0.0252697
0.0418942	0.015696	-0.0229558
0.0422617	0.0185533	-0.0202292
0.0426292	0.0209616	-0.0171555
0.0429967	0.0228809	-0.0138063
0.0433642	0.0242825	-0.0102571
0.0437317	0.025149	-0.00658607
0.0440992	0.0254748	-0.00287215
0.0444667	0.0252654	0.000806664
0.0448342	0.0245375	0.00437485
0.0452017	0.0233183	0.00776093
0.0455692	0.0216445	0.0108989
0.0459367	0.0195615	0.0137294
0.0463041	0.0171222	0.0162008
0.0466716	0.0143856	0.0182705
0.0470391	0.0114156	0.0199049
0.0474066	0.00827936	0.0210805
0.0477741	0.00504611	0.0217838
0.0481416	0.00178528	0.0220117
0.0485091	-0.00143476	0.0217707
0.0488766	-0.00454812	0.0210774
0.0492441	-0.00749273	0.0199571
0.0496116	-0.0102116	0.0184436
0.0499791	-0.0126537	0.0165778
0.0503466	-0.0147752	0.0144073
0.0507141	-0.01654	0.0119847
0.0510816	-0.0179202	0.00936658
0.0514491	-0.0188969	0.00661218
0.0518165	-0.0194598	0.00378215
0.052184	-0.0196076	0.000937205
0.0525515	-0.0193477	-0.00186317
0.052919	-0.018696	-0.0045619
0.0532865	-0.0176759	-0.00710548
0.053654	-0.016318	-0.00944501
0.0540215	-0.0146593	-0.0115371
0.054389	-0.0127419	-0.0133445
0.0547565	-0.0106126	-0.0148371
0.055124	-0.00832103	-0.0159919
0.0554915	-0.00591915	-0.0167938
0.055859	-0.00345985	-0.0172352
0.0562265	-0.000995846	-0.0173164
0.056594	0.00142141	-0.0170451
0.0569614	0.00374278	-0.0164363
0.0573289	0.00592242	-0.0155116
0.0576964	0.00791863	-0.0142985
0.0580639	0.00969465	-0.0128302
0.0584314	0.0112193	-0.0111438
0.0587989	0.0124674	-0.00928051
0.0591664	0.0134203	-0.00728382
0.0595339	0.014066	-0.00519899
0.0599014	0.0143992	-0.00307188
0.0602689	0.0144213	-0.000948046
0.0606364	0.0141403	0.00112827
0.0610039	0.01357	0.003115
0.0613714	0.0127301	0.00497305
0.0617389	0.0116455	0.00666709
0.0621064	0.0103453	0.00816617
0.0624738	0.0088625	0.00944424
0.0628413	0.00723294	0.0104806
0.0632088	0.00549459	0.0112601
0.0635763	0.00368665	0.0117734
0.0639438	0.0018487	0.0120171
0.0643113	1.9885e-05	0.0119933
0.0646788	-0.00176193	0.0117098
0.0650463	-0.00346088	0.0111795
0.0654138	-0.00504385	0.0104203
0.0657813	-0.00648102	0.00945408
0.0661488	-0.00774646	0.00830671
0.0665163	-0.00881854	0.007007
0.0668838	-0.00968026	0.00558617
0.0672513	-0.0103195	0.00407709
0.0676188	-0.010729	0.00251356
0.0679862	-0.0109068	0.0009296
0.0683537	-0.0108554	-0.000641325
0.0687212	-0.0105823	-0.00216694
0.0690887	-0.0100995	-0.0036168
0.0694562	-0.00942263	-0.00496293
0.0698237	-0.00857132	-0.00618027
0.0701912	-0.00756808	-0.00724714
0.0705587	-0.00643802	-0.00814563
0.0709262	-0.00520816	-0.0088618
0.0712937	-0.00390683	-0.00938592
0.0716612	-0.00256306	-0.00971251
0.0720287	-0.00120596	-0.00984038
0.0723962	0.000135925	-0.00977246
0.0727637	0.00143517	-0.00951569
0.0731312	0.00266599	-0.00908073
0.0734986	0.00380477	-0.00848164
0.0738661	0.00483045	-0.00773547
0.0742336	0.00572491	-0.00686186
0.0746011	0.00647326	-0.00588253
0.0749686	0.00706407	-0.00482077
0.0753361	0.00748947	-0.00370093
0.0757036	0.00774524	-0.00254788
0.0760711	0.00783079	-0.00138647
0.0764386	0.00774908	-0.00024104
0.0768061	0.0075064	0.000865098
0.0771736	0.00711223	0.00191008
0.0775411	0.00657889	0.00287394
0.0779086	0.00592123	0.0037389
0.0782761	0.00515626	0.00448974
0.0786435	0.00430273	0.00511403
0.079011	0.00338067	0.00560225
0.0793785	0.002411	0.00594798
0.079746	0.00141503	0.00614789
0.0801135	0.000414023	0.00620175
0.080481	-0.00057123	0.00611233
0.0808485	-0.00152083	0.00588527
0.081216	-0.00241615	0.0055289
0.0815835	-0.00324018	0.00505395
0.081951	-0.00397784	0.00447333
0.0823185	-0.00461622	0.00380175
0.082686	-0.00514478	0.0030554
0.0830535	-0.00555555	0.00225157
0.083421	-0.00584314	0.00140827
0.0837885	-0.00600486	0.000543858
0.0841559	-0.00604066	-0.000323377
0.0845234	-0.00595307	-0.00117555
0.0848909	-0.00574709	-0.00199556
0.0852584	-0.00543	-0.00276739
0.0856259	-0.0050112	-0.00347643
0.0859934	-0.0045019	-0.00410973
0.0863609	-0.00391491	-0.00465622
0.0867284	-0.00326429	-0.00510689
0.0870959	-0.00256506	-0.00545491
0.0874634	-0.00183288	-0.00569573
0.0878309	-0.00108367	-0.00582711
0.0881984	-0.000333333	-0.00584911
0.0885659	0.000402608	-0.00576404
0.0889334	0.00110929	-0.00557635
0.0893009	0.00177281	-0.00529248
0.0896683	0.00238049	-0.0049207
0.0900358	0.00292109	-0.0044709
0.0904033	0.00338502	-0.00395434
0.0907708	0.00376448	-0.00338338
0.0911383	0.00405362	-0.00277124
0.0915058	0.00424856	-0.00213165
0.0918733	0.00434747	-0.00147863
0.0922408	0.00435053	-0.000826141
0.0926083	0.00425991	-0.000187817
0.0929758	0.00407966	0.000423297
0.0933433	0.00381562	0.000995016
0.0937108	0.00347521	0.00151624
0.0940783	0.00306729	0.00197715
0.0944458	0.00260195	0.00236941
0.0948133	0.00209021	0.00268629
0.0951807	0.00154387	0.00292277
0.0955482	0.000975158	0.00307563
0.0959157	0.000396544	0.00314345
0.0962832	-0.000179579	0.00312662
0.0966507	-0.000741124	0.00302732
0.0970182	-0.00127657	0.0028494
0.0973857	-0.00177517	0.00259828
0.0977532	-0.00222721	0.00228081
0.0981207	-0.00262411	0.0019051
0.0984882	-0.00295869	0.00148033
0.0988557	-0.00322519	0.00101652
0.0992232	-0.00341943	0.000524308
0.0995907	-0.00353887	1.47284e-05
0.0999582	-0.00358258	-0.000501051
0.100326	-0.00355129	-0.00101196
0.100693	-0.00344729	-0.00150725
0.101061	-0.0032744	-0.00197675
0.101428	-0.00303783	-0.00241103
0.101796	-0.00274405	-0.00280162
0.102163	-0.00240062	-0.00314115
0.102531	-0.00201602	-0.00342352
0.102898	-0.00159943	-0.00364399
0.103266	-0.00116055	-0.00379924
0.103633	-0.00070933	-0.00388745
0.104001	-0.000255809	-0.00390828
0.104368	0.000190155	-0.00386286
0.104736	0.000619073	-0.00375373
0.105103	0.00102203	-0.0035848
0.105471	0.00139087	-0.00336115
0.105838	0.00171836	-0.00308898
0.106206	0.00199833	-0.00277542
0.106573	0.00222579	-0.00242832
0.106941	0.00239701	-0.00205612
0.107308	0.00250958	-0.00166762
0.107676	0.00256243	-0.00127177
0.108043	0.00255586	-0.000877491
0.108411	0.00249144	-0.000493451
0.108778	0.002372	-0.0001279
0.109145	0.00220153	0.000211517
0.109513	0.00198504	0.000517914
0.10988	0.00172846	0.000785306
0.110248	0.00143846	0.00100872
0.110615	0.00112227	0.00118428
0.110983	0.000787573	0.00130927
0.11135	0.000442226	0.00138217
0.111718	9.41502e-05	0.00140268
0.112085	-0.000248882	0.00137166
0.112453	-0.000579412	0.00129109
0.11282	-0.000890456	0.00116404
0.113188	-0.00117565	0.000994504
0.113555	-0.00142939	0.000787345
0.113923	-0.00164691	0.000548128
0.11429	-0.0018244	0.000282988
0.114658	-0.00195907	-1.5334e-06
0.115025	-0.00204914	-0.000298641
0.115393	-0.00209391	-0.000601454
0.11576	-0.00209369	-0.00090316
0.116128	-0.00204981	-0.00119717
0.116495	-0.00196455	-0.00147727
0.116863	-0.00184102	-0.00173775
0.11723	-0.00168312	-0.00197349
0.117598	-0.00149539	-0.00218011
0.117965	-0.0012829	-0.002354
0.118333	-0.00105111	-0.00249242
0.1187	-0.000805751	-0.00259349
0.119068	-0.000552647	-0.00265624
0.119435	-0.000297621	-0.00268058
0.119803	-4.63404e-05	-0.00266728
0.12017	0.000195804	-0.00261794
0.120538	0.000423806	-0.00253488
0.120905	0.00063315	-0.00242111
0.121273	0.00081989	-0.00228021
0.12164	0.000980721	-0.00211622
0.122008	0.00111303	-0.00193356
0.122375	0.00121491	-0.00173688
0.122743	0.00128523	-0.00153101
0.12311	0.00132355	-0.00132075
0.123478	0.00133017	-0.00111084
0.123845	0.00130606	-0.000905832
0.124213	0.00125281	-0.000709998
0.12458	0.00117259	-0.000527239
0.124948	0.00106806	-0.000361028
0.125315	0.000942291	-0.000214343
0.125683	0.000798683	-8.96298e-05
0.12605	0.000640878	1.12306e-05
0.126418	0.000472671	8.69352e-05
0.126785	0.000297915	0.000136761
0.127153	0.000120443	0.000160552
0.12752	-5.60159e-05	0.000158699
0.127888	-0.000227909	0.0001321
0.128255	-0.000391924	8.21213e-05
0.128623	-0.000545049	1.05443e-05
0.12899	-0.000684616	-8.04916e-05
0.129358	-0.000808339	-0.00018855
0.129725	-0.000914341	-0.000310961
0.130093	-0.00100117	-0.000444886
0.13046	-0.0010678	-0.000587382
0.130828	-0.00111365	-0.000735465
0.131195	-0.00113855	-0.000886167
0.131563	-0.00114271	-0.00103659
0.13193	-0.00112674	-0.00118396
0.132298	-0.0010916	-0.00132567
0.132665	-0.00103854	-0.0014593
0.133033	-0.000969102	-0.0015827
0.1334	-0.000885052	-0.00169395
0.133768	-0.000788355	-0.00179142
0.134135	-0.000681125	-0.00187378
0.134503	-0.000565592	-0.00194
0.13487	-0.000444054	-0.00198936
0.135238	-0.000318845	-0.00202144
0.135605	-0.000192293	-0.00203612
0.135972	-6.66902e-05	-0.00203358
0.13634	5.574e-05	-0.00201426
0.136707	0.000172875	-0.00197889
0.137075	0.00028272	-0.00192844
0.137442	0.000383429	-0.00186409
0.13781	0.000473334	-0.00178725
0.138177	0.00055096	-0.0016995
0.138545	0.000615048	-0.0016026
0.138912	0.000664567	-0.00149844
0.13928	0.00069873	-0.00138901
0.139647	0.000717006	-0.0012764
0.140015	0.000719129	-0.00116273
0.140382	0.000705102	-0.00105016
0.14075	0.000675204	-0.000940847
0.141117	0.000629989	-0.000836884
0.141485	0.000570281	-0.000740305
0.141852	0.000497168	-0.000653028
0.14222	0.000411992	-0.000576828
0.142587	0.00031633	-0.000513304
0.142955	0.000211976	-0.000463843
0.143322	0.000100912	-0.000429593
0.14369	-1.47144e-05	-0.000411431
0.144057	-0.000132635	-0.000409945
0.144425	-0.000250491	-0.000425403
0.144792	-0.000365881	-0.000457748
0.14516	-0.000476404	-0.000506582
0.145527	-0.000579712	-0.000571163
0.145895	-0.000673552	-0.000650411
0.146262	-0.000755825	-0.000742918
0.14663	-0.00082463	-0.000846966
0.146997	-0.000878313	-0.000960553
0.147365	-0.000915511	-0.00108143
0.147732	-0.000935194	-0.00120715
0.1481	-0.000936693	-0.00133509
0.148467	-0.000919732	-0.00146253
0.148835	-0.000884444	-0.00158672
0.149202	-0.000831382	-0.0017049
0.14957	-0.000761514	-0.00181443
0.149937	-0.000676218	-0.00191277
0.150305	-0.000577257	-0.00199764
0.150672	-0.000466747	-0.002067
0.15104	-0.000347117	-0.00211915
0.151407	-0.000221058	-0.00215278
0.151775	-9.14602e-05	-0.00216697
0.152142	3.865e-05	-0.0021613
0.15251	0.000166184	-0.00213579
0.152877	0.000288067	-0.00209096
0.153245	0.000401316	-0.00202781
0.153612	0.000503115	-0.00194781
0.15398	0.000590895	-0.00185287
0.154347	0.000662399	-0.0017453
0.154715	0.000715752	-0.00162777
0.155082	0.000749512	-0.00150321
0.15545	0.000762716	-0.0013748
0.155817	0.000754916	-0.00124583
0.156185	0.000726197	-0.00111966
0.156552	0.000677182	-0.000999591
0.15692	0.000609028	-0.000888826
0.157287	0.000523396	-0.000790347
0.157655	0.000422422	-0.000706844
0.158022	0.00030866	-0.000640641
0.15839	0.000185021	-0.00059363
0.158757	5.46981e-05	-0.00056721
0.159125	-7.8913e-05	-0.000562248
0.159492	-0.000212308	-0.00057905
0.15986	-0.000341965	-0.000617347
0.160227	-0.000464442	-0.000676294
0.160595	-0.000576468	-0.000754491
0.160962	-0.000675038	-0.000850019
0.16133	-0.000757493	-0.000960482
0.161697	-0.000821599	-0.00108308
0.162065	-0.000865606	-0.00121466
0.162432	-0.000888305	-0.00135185
0.162799	-0.000889059	-0.00149108
0.163167	-0.000867827	-0.00162875
0.163534	-0.000825163	-0.00176129
0.163902	-0.000762207	-0.00188526
0.164269	-0.00068065	-0.00199745
0.164637	-0.000582693	-0.002095
0.165004	-0.000470983	-0.00217544
0.165372	-0.000348538	-0.00223675
0.165739	-0.000218667	-0.00227749
0.166107	-8.48707e-05	-0.00229676
0.166474	4.92518e-05	-0.00229425
0.166842	0.000180108	-0.00227028
0.167209	0.000304214	-0.00222575
0.167577	0.000418291	-0.00216212
0.167944	0.000519359	-0.0020814
0.168312	0.000604821	-0.00198604
0.168679	0.000672537	-0.00187888
0.169047	0.000720878	-0.0017631
0.169414	0.000748777	-0.00164208
0.169782	0.000755752	-0.00151931
0.170149	0.000741919	-0.00139832
0.170517	0.000707981	-0.00128253
0.170884	0.00065521	-0.00117521
0.171252	0.0005854	-0.00107934
0.171619	0.000500817	-0.000997533
0.171987	0.000404123	-0.000931983
0.172354	0.0002983	-0.000884386
0.172722	0.000186559	-0.000855903
0.173089	7.22453e-05	-0.000847129
0.173457	-4.1263e-05	-0.000858081
0.173824	-0.000150652	-0.000888203
0.174192	-0.000252768	-0.000936389
0.174559	-0.00034471	-0.00100102
0.174927	-0.000423912	-0.00108002
0.175294	-0.000488212	-0.00117092
0.175662	-0.000535914	-0.00127093
0.176029	-0.000565829	-0.00137705
0.176397	-0.000577308	-0.00148611
0.176764	-0.00057025	-0.00159492
0.177132	-0.0005451	-0.00170033
0.177499	-0.000502827	-0.00179936
0.177867	-0.000444889	-0.00188923
0.178234	-0.000373183	-0.00196748
0.178602	-0.000289982	-0.00203203
0.178969	-0.000197861	-0.00208123
0.179337	-9.96175e-05	-0.0021139
0.179704	1.81633e-06	-0.00212939
0.180072	0.000103462	-0.00212752
0.180439	0.000202383	-0.00210865
0.180807	0.000295773	-0.00207364
0.181174	0.000381036	-0.00202377
0.181542	0.00045586	-0.00196075
0.181909	0.000518277	-0.00188666
0.182277	0.000566719	-0.00180383
0.182644	0.000600056	-0.00171481
0.183012	0.000617617	-0.00162228
0.183379	0.000619203	-0.00152898
0.183747	0.000605085	-0.00143758
0.184114	0.000575979	-0.00135067
0.184482	0.00053302	-0.00127061
0.184849	0.000477718	-0.00119956
0.185217	0.0004119	-0.0011393
0.185584	0.000337652	-0.00109131
0.185952	0.000257248	-0.00105664
0.186319	0.00017308	-0.00103594
0.186687	8.75788e-05	-0.00102943
0.187054	3.14404e-06	-0.00103691
0.187422	-7.79276e-05	-0.00105779
0.187789	-0.000153509	-0.0010911
0.188157	-0.000221699	-0.00113554
0.188524	-0.000280877	-0.00118953
0.188892	-0.000329739	-0.00125124
0.189259	-0.00036733	-0.00131872
0.189627	-0.000393058	-0.00138989
0.189994	-0.000406703	-0.00146262
0.190361	-0.000408414	-0.00153485
0.190729	-0.000398683	-0.00160458
0.191096	-0.00037833	-0.00166998
0.191464	-0.000348457	-0.00172941
0.191831	-0.00031041	-0.00178146
0.192199	-0.000265727	-0.00182502
0.192566	-0.000216087	-0.00185928
0.192934	-0.000163248	-0.00188371
0.193301	-0.000108997	-0.00189814
0.193669	-5.50873e-05	-0.00190269
0.194036	-3.19259e-06	-0.00189778
0.194404	4.51458e-05	-0.00188409
0.194771	8.85592e-05	-0.00186256
0.195139	0.000125887	-0.00183431
0.195506	0.000156204	-0.00180064
0.195874	0.00017884	-0.00176294
0.196241	0.000193387	-0.00172267
0.196609	0.000199704	-0.00168131
0.196976	0.000197907	-0.00164031
0.197344	0.000188356	-0.00160104
0.197711	0.000171633	-0.00156475
0.198079	0.000148511	-0.00153256
0.198446	0.000119926	-0.0015054
0.198814	8.69361e-05	-0.00148401
0.199181	5.06837e-05	-0.00146892
0.199549	1.23574e-05	-0.00146044
0.199916	-2.68488e-05	-0.00145866
0.200284	-6.57726e-05	-0.00146348
0.200651	-0.000103318	-0.00147458
0.201019	-0.000138488	-0.0014915
0.201386	-0.000170407	-0.00151358
0.201754	-0.000198346	-0.00154009
0.202121	-0.000221735	-0.00157017
0.202489	-0.000240175	-0.00160291
0.202856	-0.000253438	-0.00163738
0.203224	-0.000261466	-0.00167265
0.203591	-0.000264366	-0.0017078
0.203959	-0.00026239	-0.001742
0.204326	-0.000255928	-0.00177448
0.204694	-0.000245479	-0.00180458
0.205061	-0.000231634	-0.00183176
0.205429	-0.000215046	-0.00185561
0.205796	-0.000196413	-0.00187583
0.206164	-0.000176444	-0.00189228
0.206531	-0.000155841	-0.00190493
0.206899	-0.000135276	-0.00191389
0.207266	-0.000115367	-0.00191935
0.207634	-9.66688e-05	-0.00192165
0.208001	-7.9651e-05	-0.00192114
0.208369	-6.46938e-05	-0.0019183
0.208736	-5.20795e-05	-0.0019136
0.209104	-4.19901e-05	-0.00190757
0.209471	-3.45087e-05	-0.00190072
0.209839	-2.96231e-05	-0.00189356
0.210206	-2.72335e-05	-0.00188656
0.210574	-2.71622e-05	-0.00188015
0.210941	-2.91645e-05	-0.00187473
0.211309	-3.29428e-05	-0.0018706
0.211676	-3.81596e-05	-0.00186801
0.212044	-4.44528e-05	-0.00186714
0.212411	-5.14487e-05	-0.00186808
0.212779	-5.87766e-05	-0.00187087
0.213146	-6.60802e-05	-0.00187547
0.213514	-7.30292e-05	-0.00188177
0.213881	-7.9328e-05	-0.00188964
0.214249	-8.47233e-05	-0.00189888
0.214616	-8.90092e-05	-0.00190925
0.214984	-9.20302e-05	-0.00192052
0.215351	-9.36828e-05	-0.00193241
0.215719	-9.39143e-05	-0.00194465
0.216086	-9.27208e-05	-0.00195699
0.216454	-9.0143e-05	-0.00196918
0.216821	-8.62615e-05	-0.00198098
0.217188	-8.11903e-05	-0.0019922
0.217556	-7.50708e-05	-0.00200266
0.217923	-6.80648e-05	-0.00201222
0.218291	-6.03474e-05	-0.00202077
0.218658	-5.21005e-05	-0.00202825
0.219026	-4.3507e-05	-0.00203462
0.219393	-3.47447e-05	-0.00203986
0.219761	-2.59824e-05	-0.00204399
0.220128	-1.73755e-05	-0.00204707
0.220496	-9.06345e-06	-0.00204914
0.220863	-1.16802e-06	-0.00205029
0.221231	6.2079e-06	-0.00205061
0.221598	1.29803e-05	-0.0020502
0.221966	1.90835e-05	-0.00204915
0.222333	2.44689e-05	-0.00204758
0.222701	2.91035e-05	-0.00204558
0.223068	3.29678e-05	-0.00204325
0.223436	3.60537e-05	-0.00204068
0.223803	3.83626e-05	-0.00203796
0.224171	3.99033e-05	-0.00203517
0.224538	4.06903e-05	-0.00203239
